timestamp (ms);EMG_Quadriceps (raw);ECG_Isquiotibiais (raw);Angulo_Relativo (graus)
973;103;346;13.79
981;104;354;13.78
983;58;345;13.78
985;98;345;13.78
985;107;352;13.78
988;58;347;13.79
989;96;348;13.79
992;106;354;13.78
994;62;347;13.78
996;102;342;13.8
996;112;356;13.81
996;57;348;13.81
996;86;346;13.81
996;98;347;13.79
996;54;343;13.76
996;83;342;13.71
1004;101;345;13.67
1006;74;352;13.65
1006;81;339;13.65
1008;99;353;13.64
1008;51;353;13.64
1010;80;343;13.63
1010;96;351;13.64
1012;58;344;13.67
1014;78;345;13.73
1014;96;350;13.81
1016;52;342;13.89
1016;76;343;13.97
1018;105;350;14.03
1018;57;345;14.09
1020;81;347;14.15
1022;112;352;14.2
1022;59;343;14.23
1024;81;342;14.26
1024;113;349;14.26
1026;62;345;14.25
1026;86;343;14.22
1028;128;348;14.21
1030;64;345;14.17
1030;87;343;14.15
1032;123;349;14.14
1032;55;346;14.15
1034;83;339;14.17
1034;128;348;14.22
1036;59;342;14.29
1036;80;338;14.39
1038;125;345;14.53
1038;79;338;14.67
1040;77;337;14.8
1040;131;345;14.89
1042;66;343;14.96
1042;81;338;15.03
1044;150;354;15.08
1044;71;341;15.14
1046;82;338;15.21
1046;144;347;15.33
1046;80;342;15.44
1046;85;338;15.54
1046;139;345;15.66
1046;76;342;15.79
1053;85;338;15.88
1055;139;342;15.93
1055;81;341;15.96
1057;87;337;15.96
1057;141;339;15.96
1059;80;339;15.93
1059;86;336;15.85
1061;141;342;15.69
1061;79;342;15.51
1061;83;340;15.31
1061;129;343;15.05
1061;80;339;14.72
1061;80;336;14.5
1067;141;343;14.2
1069;80;341;14.11
1070;75;336;14.07
1070;151;345;13.99
1070;82;341;13.81
1070;78;336;13.73
1074;153;346;13.6
1075;86;336;13.47
1075;83;335;13.34
1077;152;343;13.23
1079;90;341;13.11
1079;79;338;12.97
1079;144;345;12.85
1079;87;341;12.74
1083;69;337;12.62
1085;142;348;12.48
1086;83;347;12.33
1087;69;340;12.26
1087;129;349;12.32
1087;82;342;12.45
1087;58;342;12.62
1087;130;345;12.78
1092;79;344;12.93
1092;54;339;12.98
1094;126;347;13.04
1609;77;346;13.07
1609;57;339;13.11
1609;129;343;13.17
1609;80;345;13.24
1609;58;339;13.32
1609;129;347;13.42
1609;82;341;13.56
1609;71;346;13.66
1609;145;348;13.77
1609;64;346;13.89
1609;67;340;14.05
1616;148;346;14.18
1618;103;347;14.29
1618;49;339;14.35
1618;119;346;14.38
1618;80;347;14.38
1618;48;337;14.36
1618;112;348;14.35
1618;96;349;14.37
1618;48;350;14.42
1618;125;346;14.47
1618;84;348;14.52
1625;49;339;14.56
1626;123;349;14.58
1626;89;350;14.59
1626;54;345;14.59
1626;118;350;14.59
1626;96;353;14.58
1626;54;342;14.55
1626;113;349;14.52
1626;89;349;14.49
1626;54;345;14.48
1626;113;350;14.47
1626;86;350;14.47
1633;52;362;14.45
1633;112;347;14.42
1634;85;339;14.39
1634;53;342;14.34
1634;102;348;14.3
1634;89;350;14.26
1634;54;347;14.22
1634;104;337;14.22
1634;93;349;14.23
1634;57;348;14.24
1634;93;349;14.25
1641;93;350;14.25
1641;55;343;14.27
1643;103;350;14.29
1643;95;349;14.31
1682;59;345;14.35
1682;105;345;14.39
1684;101;351;14.42
1684;64;345;14.43
2213;106;331;14.43
2213;103;352;14.42
2213;58;343;14.4
2213;105;347;14.37
2213;99;350;14.33
2213;27;343;14.31
2213;93;348;14.29
2222;103;350;14.28
2223;62;346;14.3
2223;95;347;14.33
2225;102;347;14.37
2226;59;346;14.4
2226;89;349;14.4
2226;101;350;14.41
2228;61;343;14.41
2228;83;342;14.41
2230;97;350;14.4
2230;55;348;14.39
2230;84;346;14.41
2232;103;351;14.43
2232;59;343;14.45
2232;85;349;14.46
2234;107;349;14.46
2234;58;347;14.43
2234;83;349;14.39
2236;107;350;14.34
2236;64;346;14.3
2236;79;342;14.29
2238;104;351;14.29
2238;63;346;14.31
2240;82;347;14.35
2241;109;351;14.38
2241;64;347;14.41
2241;82;343;14.42
2241;112;351;14.41
2241;64;343;14.39
2241;83;349;14.35
2246;112;354;14.31
2246;64;347;14.27
2246;80;346;14.26
2246;97;350;14.24
2246;65;348;14.23
2246;74;347;14.22
2246;112;351;14.22
2246;64;348;14.22
2246;73;344;14.23
2246;113;351;14.23
2246;64;342;14.22
2246;73;343;14.22
2254;110;349;14.22
2254;64;346;14.2
2520;67;345;14.19
2520;112;350;14.18
2520;64;349;14.16
2520;73;343;14.14
2520;115;349;14.12
2522;66;348;14.1
2522;69;345;14.09
2522;116;353;14.08
2522;67;347;14.08
2522;72;345;14.08
2522;115;350;14.1
2525;65;347;14.11
2525;70;350;14.13
2525;112;355;14.15
2525;64;350;14.16
2527;65;345;14.17
2527;115;349;14.17
2527;64;344;14.17
2527;64;343;14.17
2527;112;351;14.16
2529;64;349;14.17
2529;65;345;14.18
2529;118;349;14.19
2529;80;345;14.2
2529;65;350;14.21
2561;115;347;14.22
2561;80;350;14.23
2591;77;342;14.24
2592;122;352;14.24
2592;68;346;14.24
2624;64;342;14.25
2626;122;354;14.24
2626;72;347;14.22
2659;58;343;14.22
2659;118;347;14.22
2659;74;349;14.21
2691;55;343;14.22
2691;128;351;14.22
2693;75;345;14.23
2728;66;346;14.23
2730;120;348;14.25
2730;74;349;14.25
2731;58;346;14.25
2783;120;347;14.25
2783;69;346;14.24
2783;52;342;14.23
2785;119;348;14.22
2785;78;345;14.2
2830;55;342;14.18
2830;124;365;14.17
2830;82;347;14.18
2830;58;341;14.18
2885;118;350;14.18
2885;82;351;14.19
2885;59;345;14.2
2885;122;347;14.21
2885;78;349;14.22
2943;50;345;14.23
2945;112;349;14.23
2945;80;350;14.23
2945;51;347;14.22
2947;122;347;14.22
3000;79;351;14.22
3000;48;343;14.22
3000;112;346;14.21
3003;80;357;14.21
3003;67;353;14.22
3059;129;347;14.22
3059;80;345;14.22
3059;62;340;14.22
3059;114;346;14.21
3059;89;350;14.19
3109;55;343;14.21
3109;114;347;14.23
3109;79;340;14.27
3109;53;343;14.3
3113;116;350;14.29
3159;90;349;14.26
3159;50;343;14.23
3161;102;349;14.18
3161;94;352;14.14
3207;57;343;14.11
3210;102;350;14.08
3210;79;344;14.04
3210;41;343;14.01
3210;91;348;13.98
3258;91;349;13.94
3258;52;343;13.9
3262;73;342;13.88
3262;80;346;13.87
3309;54;345;13.86
3309;62;347;13.85
3311;98;352;13.86
3311;56;346;13.86
3311;118;347;13.87
3363;97;350;13.88
3363;59;335;13.89
3363;117;346;13.9
3365;97;349;13.92
3366;57;342;13.92
3412;109;346;13.93
3412;97;349;13.94
3412;75;353;13.95
3412;144;346;13.96
3465;116;355;13.95
3465;59;343;13.95
3465;103;347;13.94
3465;108;351;13.94
3468;53;341;13.94
3517;64;346;13.95
3517;104;361;13.96
3517;57;346;13.95
3517;101;341;13.93
3563;106;350;13.9
3563;55;346;13.89
3563;100;345;13.89
3563;109;351;13.89
3567;62;346;13.91
3619;95;346;13.92
3619;112;349;13.93
3619;62;345;13.91
3621;95;346;13.89
3668;110;351;13.86
3668;60;346;13.85
3670;90;344;13.85
3670;112;353;13.86
3670;64;344;13.91
3719;91;347;13.97
3719;102;351;14.02
3719;55;342;14.07
3719;83;346;14.11
4051;103;351;14.14
4052;57;347;14.15
4057;80;347;14.14
4057;106;349;14.14
4059;74;344;14.13
4062;80;346;14.13
4064;124;345;14.13
4066;59;347;14.12
4068;80;346;14.11
4069;112;349;14.11
4069;63;347;14.12
4070;83;343;14.12
4070;112;351;14.12
4072;64;347;14.12
4072;79;348;14.12
4074;114;353;14.12
4074;65;346;14.12
4074;80;345;14.14
4077;112;350;14.16
4077;66;348;14.19
4079;77;339;14.21
4079;112;354;14.22
4079;64;346;14.23
4079;74;345;14.24
4079;112;350;14.23
4079;66;347;14.23
4079;75;346;14.23
4079;112;350;14.23
4079;64;346;14.23
4079;64;347;14.23
4079;90;350;14.24
4079;50;349;14.24
4079;48;341;14.26
4137;92;348;14.27
4137;53;342;14.29
4137;54;342;14.31
4139;96;351;14.32
4139;64;343;14.32
4507;57;340;14.33
4507;86;346;14.33
4507;51;333;14.34
4507;48;335;14.35
4507;99;347;14.36
4507;70;349;14.38
4507;77;346;14.39
4507;139;353;14.4
4513;80;348;14.42
4513;86;344;14.44
4513;135;353;14.45
4513;79;346;14.45
4513;75;346;14.46
4513;128;347;14.46
4513;80;351;14.46
4513;78;343;14.45
4513;129;346;14.44
4513;80;352;14.44
4513;71;344;14.43
4513;117;352;14.42
4513;80;349;14.41
4513;63;341;14.41
4513;110;349;14.4
4513;77;339;14.38
4513;58;345;14.36
4513;109;347;14.34
4513;74;349;14.33
4513;64;345;14.32
4513;110;350;14.31
4513;78;351;14.3
4513;60;347;14.3
4513;107;349;14.29
4521;76;346;14.28
4521;55;346;14.26
4559;104;346;14.24
4561;77;349;14.23
4562;66;347;14.22
4562;108;349;14.21
4614;80;347;14.2
4614;58;344;14.2
4614;102;345;14.19
4620;82;352;14.2
4620;64;346;14.21
4671;106;347;14.24
4673;80;349;14.27
4674;53;347;14.3
4674;106;345;14.31
4677;87;349;14.33
4753;59;345;14.34
4753;101;350;14.34
4755;82;349;14.34
4755;61;347;14.32
4755;105;351;14.31
4757;81;348;14.29
4757;60;347;14.28
4827;100;349;14.27
4829;83;351;14.25
4829;61;347;14.25
4829;99;348;14.25
4829;88;352;14.25
4829;64;347;14.24
4829;99;351;14.24
4901;83;350;14.23
4901;62;347;14.23
4901;102;349;14.22
4901;92;349;14.22
4901;61;345;14.21
4901;100;349;14.21
4907;90;351;14.22
4968;62;347;14.22
4968;99;346;14.23
4968;87;351;14.25
4968;63;345;14.25
4968;98;346;14.25
4973;78;348;14.25
5033;64;346;14.24
5033;98;346;14.24
5033;101;352;14.23
5033;59;346;14.23
5033;92;349;14.24
5033;90;348;14.24
5100;56;346;14.24
5100;95;346;14.25
5100;93;349;14.26
5100;61;346;14.26
5100;95;347;14.26
5107;95;351;14.26
5185;59;347;14.27
5185;91;346;14.27
5187;96;350;14.26
5187;62;347;14.25
5187;92;350;14.24
5189;94;352;14.24
5189;61;347;14.24
5269;90;347;14.25
5269;97;352;14.25
5271;61;347;14.24
5271;91;349;14.25
5271;98;350;14.25
5273;61;347;14.25
5275;93;347;14.24
5276;99;349;14.24
5350;61;347;14.24
5350;85;346;14.25
5352;96;348;14.25
5352;64;346;14.24
5352;84;346;14.25
5354;104;350;14.24
5354;64;344;14.23
5432;81;348;14.22
5432;106;350;14.21
5432;64;349;14.2
5434;85;346;14.2
5434;89;352;14.19
5434;64;347;14.18
5436;80;345;14.17
5500;105;351;14.17
5500;64;344;14.17
5500;80;346;14.17
5500;105;349;14.17
5504;64;347;14.18
5504;79;346;14.19
5553;105;351;14.19
5553;63;347;14.19
5556;77;350;14.19
5556;110;351;14.19
5558;64;348;14.19
5634;79;348;14.2
5637;103;349;14.22
5637;67;349;14.22
5637;76;343;14.22
5639;98;354;14.22
5639;65;349;14.23
5639;74;349;14.24
5641;102;351;14.23
5716;67;346;14.23
5716;71;345;14.23
5716;95;352;14.23
5718;66;346;14.23
5718;68;346;14.22
5718;103;353;14.22
5720;64;347;14.22
5785;73;345;14.22
5785;113;347;14.23
5785;68;347;14.24
5785;74;348;14.25
5785;103;350;14.26
5785;72;350;14.27
5851;69;345;14.28
5851;106;351;14.28
5851;66;349;14.28
5851;67;346;14.29
5851;106;351;14.3
5851;70;348;14.31
5933;71;347;14.31
5933;105;351;14.32
5933;72;346;14.33
5935;70;345;14.33
5935;107;349;14.32
5935;70;349;14.33
5937;68;343;14.34
6008;107;351;14.36
6008;73;350;14.36
6008;71;345;14.37
6008;104;350;14.38
6008;73;348;14.38
6013;68;343;14.38
6013;106;350;14.38
6084;71;350;14.38
6084;67;348;14.38
6084;109;350;14.39
6084;75;350;14.39
6084;67;347;14.4
6084;112;349;14.41
6090;76;347;14.41
6159;64;344;14.41
6159;102;349;14.41
6159;74;352;14.41
6159;65;348;14.41
6159;101;350;14.42
6159;79;350;14.43
6165;65;346;14.44
6231;105;352;14.45
6231;80;346;14.45
6231;67;347;14.44
6231;106;351;14.44
6231;80;349;14.45
6231;64;345;14.46
6301;111;350;14.46
6301;80;350;14.45
6301;63;347;14.45
6301;101;350;14.45
6301;85;349;14.45
6301;64;347;14.43
6381;106;350;14.42
6381;80;349;14.41
6381;59;343;14.4
6381;106;349;14.39
6381;81;349;14.39
6381;63;347;14.38
6381;109;349;14.38
6381;86;351;14.39
6463;67;346;14.38
6463;112;349;14.39
6463;90;348;14.38
6463;67;347;14.38
6463;102;349;14.38
6463;83;351;14.39
6463;64;346;14.4
6537;95;349;14.4
6537;84;350;14.41
6537;48;346;14.41
6537;97;347;14.4
6537;83;350;14.41
6537;64;345;14.41
6537;102;347;14.41
6612;85;347;14.4
6612;64;346;14.39
6612;92;349;14.38
6612;82;346;14.37
6612;64;347;14.35
6612;102;350;14.34
6676;86;349;14.32
6676;64;346;14.31
6676;94;349;14.3
6676;83;350;14.3
6676;60;347;14.3
6676;97;350;14.29
6750;86;347;14.29
6750;59;347;14.28
6750;95;347;14.28
6750;85;350;14.29
6750;62;347;14.28
6750;91;348;14.28
6750;86;346;14.29
6818;59;348;14.3
6818;95;351;14.3
6818;88;350;14.3
6818;63;343;14.3
6818;91;336;14.29
6818;86;347;14.29
6891;56;345;14.29
6891;86;343;14.29
6891;82;350;14.29
6891;59;346;14.28
6891;85;345;14.29
6891;84;349;14.28
6959;59;345;14.28
6959;85;344;14.28
6961;86;349;14.29
6961;64;347;14.29
6961;81;350;14.3
6963;87;353;14.31
7031;64;348;14.32
7031;80;346;14.33
7031;89;351;14.34
7031;45;346;14.36
7031;89;346;14.37
7031;90;351;14.39
7031;64;346;14.39
7099;83;348;14.4
7099;93;349;14.41
7099;64;347;14.43
7099;84;346;14.44
7099;99;346;14.46
7106;64;346;14.47
7177;81;346;14.47
7177;99;351;14.48
7177;62;347;14.5
7179;80;350;14.53
7179;98;350;14.56
7181;62;347;14.6
7181;78;342;14.63
7249;101;349;14.69
7249;65;348;14.75
7249;81;349;14.83
7249;98;350;14.9
7249;66;347;14.97
7249;80;347;15.05
7330;99;351;15.15
7330;66;347;15.23
7332;80;343;15.32
7332;97;347;15.42
7334;65;346;15.54
7336;78;344;15.66
7337;105;351;15.76
7339;74;347;15.82
7416;80;342;15.86
7417;103;348;15.9
7417;71;343;15.93
7419;80;342;15.93
7419;103;343;15.89
7419;70;342;15.84
7421;73;337;15.78
7483;97;342;15.72
7483;74;342;15.6
7485;80;343;15.48
7485;101;343;15.32
7485;80;339;15.32
7487;89;342;15.43
7549;112;342;15.57
7549;83;339;15.65
7551;93;340;15.59
7551;114;342;15.62
7551;78;338;15.69
7553;80;339;15.71
7616;117;344;15.64
7616;80;340;15.48
7618;94;339;15.39
7618;125;341;15.39
7618;82;340;15.44
7620;84;338;15.34
7683;115;341;15.45
7683;77;336;15.63
7686;71;336;15.71
7686;105;338;15.88
7686;71;336;15.95
7689;62;331;15.95
7748;83;336;15.97
7748;63;330;16.1
7748;50;325;15.99
7748;79;329;15.81
7748;67;325;15.52
7748;60;322;15.31
7824;98;322;14.93
7826;70;319;14.69
7826;64;315;14.47
7826;91;324;14.03
7826;82;321;13.71
7826;68;317;13.51
7826;106;323;12.89
7897;80;321;12.29
7897;79;320;11.66
7899;116;321;11.04
7899;101;326;10.34
7899;94;321;9.64
7901;130;325;8.96
7978;107;325;8.39
7978;92;314;7.7
7978;126;329;6.82
7978;112;325;5.96
7978;107;320;5.33
7978;145;330;4.67
7978;119;325;4.11
7978;112;321;3.2
8062;141;325;2.26
8062;119;325;1.38
8064;106;321;0.44
8064;124;323;0.98
8064;126;326;1.74
8066;101;320;2.79
8066;145;323;4.33
8125;126;323;4.54
8125;108;321;5.02
8125;144;320;5.91
8125;130;323;6.43
8125;117;320;7.1
8125;162;320;7.86
8193;137;320;8.74
8197;127;318;9.5
8197;171;320;10.37
8197;142;320;11.37
8199;124;317;12.46
8199;171;322;13.46
8265;144;320;14.48
8265;127;317;15.46
8265;187;320;16.55
8265;147;321;17.48
8265;135;325;18.55
8265;194;321;19.58
8265;145;320;20.6
8340;126;320;21.62
8340;168;321;22.61
8340;144;321;23.65
8340;98;318;24.7
8340;158;321;25.69
8340;141;320;26.8
8416;112;317;27.97
8416;139;320;29.11
8416;138;321;30.25
8416;115;320;31.42
8416;147;320;32.57
8416;139;320;33.76
8422;112;319;34.92
8490;145;322;36.12
8490;137;319;37.28
8490;112;317;38.48
8490;144;320;39.7
8490;131;321;40.88
8490;109;322;42.07
8490;140;322;43.24
8558;133;324;44.4
8558;107;321;45.54
8558;135;323;46.68
8558;127;322;47.83
8558;101;321;48.95
8558;123;322;50.08
8623;112;321;51.25
8623;99;321;52.27
8623;131;322;53.23
8623;128;321;54.19
8623;100;318;55.14
8673;134;321;56.06
8673;128;324;56.96
8673;103;322;57.82
8675;139;320;58.65
8675;133;320;59.46
8727;104;321;60.24
8727;144;322;61.0
8727;133;322;61.73
8727;107;319;62.43
8727;139;322;63.08
8785;135;323;63.7
8785;107;320;64.29
8787;138;323;64.86
8787;142;325;65.39
8788;109;322;65.89
8840;142;320;66.38
8840;140;324;66.85
8840;106;321;67.29
8840;128;320;67.67
8840;141;324;67.99
8881;110;321;68.26
8881;139;321;68.48
8881;144;324;68.68
8924;111;320;68.84
8924;145;321;68.98
8924;147;327;69.11
8924;110;321;69.2
8992;144;320;69.3
8992;151;325;69.33
8994;114;320;69.32
8994;146;321;69.27
8994;153;323;69.15
8996;115;314;69.01
8996;144;326;68.83
9090;153;324;68.64
9091;114;322;68.41
9091;142;320;68.16
9093;147;323;67.88
9095;112;319;67.56
9095;135;322;67.25
9095;150;321;66.93
9097;112;320;66.55
9097;129;320;66.13
9164;147;322;65.65
9164;105;319;65.15
9164;125;320;64.63
9164;145;325;64.07
9164;107;320;63.48
9164;124;320;62.89
9231;141;323;62.24
9231;107;321;61.6
9231;125;323;61.0
9231;151;326;60.39
9231;112;322;59.76
9231;121;320;59.06
9299;146;325;58.37
9299;107;322;57.67
9301;133;325;56.93
9301;157;324;56.15
9301;118;315;55.34
9303;146;321;54.49
9364;156;327;53.68
9364;109;328;52.79
9364;124;321;51.9
9364;144;320;51.1
9364;107;323;50.24
9364;123;324;49.38
9429;158;329;48.47
9429;114;324;47.58
9429;118;323;46.77
9429;173;327;46.01
9429;111;324;45.2
9429;102;322;44.34
9501;156;331;43.47
9501;112;326;42.6
9503;145;326;41.81
9503;231;335;41.03
9503;115;320;40.24
9507;131;324;39.35
9564;176;332;38.49
9564;117;330;37.65
9564;138;326;36.84
9564;176;330;36.03
9564;126;330;35.2
9564;128;325;34.46
9630;169;333;33.65
9630;114;329;32.86
9630;144;327;32.01
9630;128;331;31.17
9630;102;330;30.4
9630;97;326;29.77
9696;154;335;29.29
9696;122;336;28.74
9696;145;333;28.15
9696;175;339;27.52
9698;113;336;26.79
9701;108;336;25.99
9757;157;339;25.17
9759;121;338;24.39
9759;107;336;23.79
9761;169;343;23.36
9763;114;341;22.95
9828;121;337;22.39
9828;156;341;21.79
9828;129;339;21.22
9828;91;337;20.65
9828;160;342;20.03
9828;125;342;19.45
9828;110;337;18.95
9898;151;339;18.41
9898;119;343;17.96
9898;111;341;17.59
9898;155;342;17.2
9898;121;345;16.67
9898;109;337;16.26
9974;160;345;15.92
9974;118;338;15.6
9974;92;342;15.27
9974;146;347;14.88
9974;110;340;14.43
9974;86;336;13.98
9979;149;347;13.4
10045;114;342;12.8
10045;110;340;12.4
10045;169;347;12.12
10045;115;343;11.79
10045;93;336;11.48
10045;153;349;11.09
10114;112;342;10.6
10114;119;340;10.1
10116;164;346;9.62
10116;112;346;9.17
10116;91;339;8.76
10116;137;346;8.4
10181;101;343;7.89
10181;76;337;7.37
10183;131;342;6.93
10183;101;343;6.5
10183;79;339;6.2
10185;118;344;5.93
10246;101;342;5.62
10246;30;339;5.32
10246;116;345;5.03
10246;91;343;4.82
10246;67;339;4.55
10246;113;347;4.19
10329;85;343;3.86
10329;63;342;3.5
10329;113;349;3.11
10329;89;347;2.76
10329;64;347;2.4
10329;119;351;2.0
10329;84;349;1.62
10329;61;349;1.19
10395;111;349;0.76
10395;83;349;0.32
10395;54;347;0.15
10395;108;348;0.63
10395;82;350;1.1
10466;59;347;1.57
10466;107;347;1.99
10468;85;350;2.51
10468;59;345;2.99
10468;107;351;3.37
10471;87;352;3.71
10471;59;343;4.0
10541;108;346;4.24
10541;86;336;4.46
10541;57;347;4.69
10541;108;343;4.92
10541;89;347;5.17
10541;61;346;5.41
10615;112;348;5.67
10615;93;351;5.95
10615;59;348;6.19
10615;110;349;6.42
10615;94;350;6.61
10615;55;343;6.78
10615;110;347;6.91
10681;90;351;7.01
10681;60;343;7.13
10681;96;347;7.24
10681;93;350;7.37
10681;60;343;7.51
10681;101;349;7.65
10747;91;347;7.79
10747;57;346;7.93
10747;107;347;8.07
10747;90;352;8.21
10747;54;342;8.35
10747;111;350;8.49
10816;96;351;8.62
10818;59;340;8.72
10818;105;349;8.83
10818;95;351;8.93
10820;57;346;9.02
10820;99;349;9.11
10898;103;351;9.19
10898;60;346;9.26
10898;100;350;9.34
10898;98;350;9.41
10898;61;345;9.49
10898;105;343;9.56
10898;101;350;9.62
10898;59;349;9.68
10964;106;345;9.75
10964;96;353;9.82
10964;60;347;9.88
10964;108;347;9.94
10971;101;353;10.02
10972;64;346;10.08
11041;102;348;10.13
11043;102;349;10.25
11043;64;347;10.32
11045;103;347;10.4
11045;107;347;10.51
11046;62;342;10.57
11114;102;347;10.64
11114;109;352;10.72
11114;59;343;10.75
11114;99;341;10.77
11114;106;345;10.74
11114;69;338;10.77
11114;113;343;10.73
11182;112;342;10.7
11182;80;338;10.62
11182;81;337;10.5
11182;94;341;10.38
11182;69;336;10.2
11188;90;337;9.98
11264;104;341;9.72
11266;67;337;9.27
11268;89;337;8.79
11268;124;343;8.52
11270;83;336;8.35
11270;135;337;8.31
11273;123;339;8.29
11273;75;336;8.2
11378;80;338;8.14
11378;117;341;8.28
11380;75;336;8.37
11380;93;338;8.42
11380;123;341;8.41
11382;73;332;8.49
11382;75;312;8.42
11383;120;326;8.41
11383;80;326;8.36
11383;85;326;8.21
11444;108;326;8.2
11444;67;322;8.28
11444;74;320;8.03
11446;106;322;7.7
11446;70;320;7.38
11494;70;318;7.05
11494;80;319;6.67
11496;62;306;6.09
11496;62;304;5.76
11496;93;310;5.27
11560;61;302;5.15
11560;64;308;4.84
11560;105;317;4.5
11568;81;318;4.02
11568;89;316;3.53
11570;129;321;3.0
11570;100;320;2.51
11679;109;320;1.93
11679;135;323;1.47
11681;112;322;0.87
11681;112;320;0.19
11683;143;326;0.54
11686;113;320;1.05
11688;150;322;3.1
11691;170;326;2.7
11692;117;323;2.95
11692;117;320;3.12
11692;151;325;3.55
11800;116;321;4.04
11800;99;320;4.75
11800;186;324;5.37
11804;137;321;5.92
11806;155;320;6.5
11808;176;323;7.16
11808;119;320;7.88
11811;95;317;8.63
11811;176;320;9.26
11813;135;320;9.94
11913;125;314;10.61
11913;164;318;11.36
11920;112;313;12.07
11922;110;315;12.75
11925;162;322;13.46
11925;117;318;14.19
11925;113;309;15.02
11925;149;320;15.86
11925;114;317;16.76
11930;144;317;17.67
11930;191;320;18.51
12042;125;317;19.58
12042;128;311;20.27
12045;176;320;21.19
12045;128;318;22.17
12045;116;304;23.1
12045;167;319;24.11
12045;126;317;25.11
12045;118;315;26.14
12045;174;320;27.15
12054;135;319;28.2
12055;114;312;29.21
12155;172;320;30.29
12155;129;317;31.31
12157;114;310;32.35
12157;174;319;33.39
12157;128;319;34.41
12157;109;313;35.51
12161;165;320;36.56
12162;128;318;37.65
12162;110;313;38.69
12162;157;318;39.78
12257;121;320;40.86
12257;105;317;41.93
12259;149;320;42.98
12261;125;320;44.07
12261;107;316;45.15
12261;144;320;46.22
12261;125;322;47.34
12261;110;320;48.45
12261;155;320;49.54
12356;130;320;50.6
12357;112;320;51.69
12360;158;321;52.75
12360;130;323;53.76
12360;112;319;54.75
12360;159;325;55.71
12360;139;325;56.63
12360;106;320;57.54
12360;169;326;58.44
12463;134;323;59.32
12463;112;320;60.19
12463;163;322;61.02
12463;135;320;61.82
12471;112;322;62.59
12472;167;325;63.32
12473;141;323;64.03
12473;116;320;64.7
12473;145;325;65.34
12473;144;327;65.96
12579;112;320;66.54
12579;172;323;67.12
12581;143;323;67.67
12583;112;320;68.2
12583;167;324;68.71
12585;142;323;69.21
12585;112;320;69.67
12585;165;323;70.11
12585;139;323;70.54
12585;112;321;70.94
12686;169;323;71.34
12688;143;325;71.74
12690;112;320;72.13
12690;167;323;72.52
12692;144;327;72.89
12692;113;320;73.25
12694;169;323;73.58
12696;149;324;73.88
12698;113;321;74.16
12698;170;326;74.42
12796;146;322;74.67
12796;119;316;74.9
12796;166;324;75.1
12806;145;320;75.3
12806;112;321;75.48
12806;163;321;75.66
12810;148;325;75.84
12810;112;321;76.02
12810;162;325;76.19
12813;145;323;76.35
12911;112;322;76.52
12911;162;329;76.68
12911;150;327;76.84
12911;112;321;76.98
12911;166;324;77.11
12911;153;325;77.22
12911;114;320;77.32
12911;162;323;77.42
12919;155;327;77.5
12919;112;321;77.58
12996;160;323;77.66
12996;159;329;77.74
12998;114;323;77.81
12998;159;320;77.88
13000;157;327;77.95
13000;113;320;78.02
13000;157;322;78.09
13079;158;327;78.15
13079;112;323;78.2
13079;154;321;78.24
13079;159;329;78.27
13079;115;322;78.29
13079;153;322;78.3
13079;163;327;78.31
13161;115;321;78.3
13161;151;324;78.3
13161;163;320;78.29
13161;118;320;78.28
13161;154;323;78.27
13161;163;325;78.27
13161;115;323;78.29
13161;149;322;78.3
13241;163;327;78.32
13241;123;321;78.32
13241;153;324;78.32
13241;160;327;78.33
13241;118;323;78.32
13241;148;325;78.32
13241;166;327;78.31
13332;118;323;78.29
13332;144;321;78.28
13332;170;325;78.27
13332;119;321;78.25
13332;144;322;78.22
13339;166;329;78.18
13340;123;322;78.14
13340;143;325;78.1
13423;171;328;78.07
13423;118;322;78.04
13423;144;324;78.0
13427;160;327;77.95
13427;123;322;77.89
13427;142;322;77.83
13427;171;330;77.77
13429;119;322;77.72
13506;144;320;77.68
13506;173;326;77.65
13508;120;321;77.63
13508;143;322;77.6
13510;174;327;77.57
13511;125;323;77.54
13511;133;322;77.52
13511;171;329;77.49
13588;118;325;77.46
13590;133;321;77.42
13590;174;327;77.38
13593;125;321;77.35
13593;131;322;77.32
13594;144;323;77.29
13594;120;321;77.26
13667;128;322;77.24
13669;173;326;77.22
13669;125;325;77.18
13671;132;322;77.14
13673;173;329;77.1
13673;128;325;77.06
13673;132;321;77.02
13757;175;327;76.98
13759;127;323;76.94
13759;131;320;76.88
13761;176;326;76.83
13761;126;323;76.78
13763;128;320;76.74
13763;172;329;76.71
13764;128;322;76.68
13856;126;320;76.66
13856;175;326;76.63
13858;126;322;76.61
13858;127;320;76.58
13860;175;324;76.55
13860;128;324;76.52
13862;127;320;76.5
13864;177;328;76.46
13864;127;325;76.41
13941;117;320;76.36
13941;176;323;76.33
13941;104;321;76.28
13941;115;320;76.23
13943;173;329;76.19
13943;126;321;76.15
13943;122;321;76.1
14004;176;327;76.05
14006;128;325;76.0
14006;119;320;75.94
14006;178;327;75.88
14008;131;325;75.81
14008;118;320;75.75
14060;181;326;75.69
14060;134;323;75.63
14060;122;324;75.56
14062;176;324;75.49
14062;131;322;75.42
14124;122;320;75.35
14126;177;325;75.3
14126;138;326;75.24
14126;117;321;75.19
14128;178;326;75.13
14128;135;325;75.07
14190;112;317;75.01
14190;176;325;74.94
14192;134;324;74.88
14192;112;322;74.82
14192;175;325;74.78
14194;142;326;74.74
14256;112;320;74.7
14256;174;326;74.66
14258;138;327;74.61
14258;112;320;74.57
14258;175;325;74.53
14258;138;324;74.5
14306;112;322;74.47
14306;177;325;74.44
14306;138;317;74.42
14309;112;320;74.39
14353;176;323;74.36
14355;144;327;74.33
14355;115;320;74.29
14355;175;324;74.25
14408;144;325;74.22
14408;115;330;74.19
14411;176;328;74.15
14411;144;327;74.11
14411;113;313;74.07
14460;176;322;74.03
14460;142;325;73.99
14462;113;324;73.94
14462;170;326;73.9
14462;145;325;73.87
14523;113;322;73.84
14523;176;326;73.82
14524;145;325;73.8
14524;118;323;73.78
14524;150;322;73.75
14571;148;326;73.72
14571;116;322;73.69
14573;176;327;73.67
14573;149;328;73.65
14573;116;321;73.65
14627;176;326;73.65
14629;149;326;73.64
14629;119;320;73.63
14629;176;320;73.61
14629;149;325;73.58
14675;112;321;73.56
14677;171;322;73.53
14677;150;330;73.5
14677;113;320;73.48
14724;174;323;73.46
14724;153;331;73.43
14727;112;323;73.41
14727;169;325;73.38
14727;150;325;73.36
14788;112;321;73.35
14790;169;322;73.34
14790;155;330;73.34
14790;113;322;73.34
14790;167;324;73.33
14841;151;326;73.32
14841;117;320;73.3
14843;171;325;73.29
14843;154;326;73.28
14843;112;320;73.29
14891;167;323;73.33
14891;154;328;73.38
14894;114;320;73.43
14894;163;321;73.49
14894;157;326;73.54
14959;113;320;73.61
14959;157;324;73.68
14959;154;326;73.76
14961;86;320;73.85
14961;155;322;73.96
14961;112;327;74.07
15021;112;323;74.19
15023;155;322;74.32
15023;159;326;74.45
15023;112;322;74.58
15025;176;323;74.71
15110;161;326;74.84
15110;112;320;74.97
15110;147;321;75.11
15110;157;326;75.26
15110;112;321;75.42
15110;147;321;75.57
15110;153;326;75.74
15110;112;321;75.9
15175;143;323;76.08
15178;153;326;76.25
15178;116;320;76.43
15178;144;320;76.61
15178;155;326;76.8
15178;111;320;77.02
15249;141;320;77.26
15249;158;325;77.51
15249;112;321;77.76
15249;144;320;78.0
15249;161;327;78.22
15256;113;324;78.43
15256;139;320;78.64
15315;158;325;78.86
15315;112;322;79.07
15317;140;320;79.29
15319;161;323;79.49
15319;112;321;79.7
15321;128;321;79.91
15379;157;328;80.12
15379;110;322;80.3
15379;130;321;80.49
15379;161;327;80.68
15379;112;323;80.88
15428;128;322;81.07
15428;133;323;81.26
15428;112;321;81.45
15430;128;321;81.65
15430;153;325;81.85
15478;109;320;82.03
15478;117;320;82.21
15480;156;326;82.38
15480;112;322;82.55
15543;101;320;82.71
15543;163;323;82.85
15546;111;320;83.05
15546;122;322;83.2
15546;163;330;83.34
15548;112;321;83.47
15604;125;320;83.61
15604;158;323;83.77
15606;112;321;83.93
15608;119;321;84.1
15608;161;331;84.26
15610;109;321;84.4
15691;112;321;84.54
15691;161;325;84.65
15691;112;323;84.76
15691;119;321;84.87
15693;167;327;84.97
15693;114;322;85.05
15693;124;320;85.12
15746;169;327;85.18
15746;112;323;85.23
15746;118;320;85.28
15746;165;325;85.33
15749;114;326;85.39
15795;119;320;85.46
15795;175;327;85.53
15795;115;324;85.59
15795;119;320;85.64
15795;172;328;85.69
15853;115;323;85.72
15853;115;325;85.74
15853;176;327;85.75
15853;118;325;85.73
15861;114;320;85.71
15959;176;327;85.69
15959;119;323;85.67
15959;112;321;85.64
15967;176;327;85.62
15971;119;323;85.6
15973;112;323;85.58
15973;175;327;85.56
15975;119;325;85.54
15976;116;320;85.51
15976;173;326;85.48
15976;125;324;85.44
16079;112;322;85.39
16079;175;326;85.37
16079;128;323;85.36
16079;112;321;85.35
16085;176;325;85.32
16089;128;326;85.29
16089;112;319;85.24
16089;181;331;85.19
16089;124;325;85.14
16089;111;322;85.09
16189;176;325;85.05
16189;128;329;85.02
16189;108;320;85.0
16193;177;326;85.0
16193;128;326;85.01
16193;112;322;85.02
16193;176;326;85.01
16193;130;325;84.98
16193;112;321;84.92
16193;178;331;84.85
16305;133;324;84.77
16305;112;321;84.68
16308;179;330;84.6
16308;138;325;84.54
16308;112;319;84.5
16310;185;327;84.46
16311;137;324;84.43
16311;112;321;84.41
16311;181;325;84.4
16311;143;320;84.38
16412;129;320;84.34
16412;179;326;84.29
16412;139;329;84.22
16412;111;323;84.15
16412;177;327;84.1
16412;140;326;84.07
16419;109;323;84.05
16421;178;327;84.05
16421;142;325;84.05
16423;109;323;84.04
16495;176;329;84.02
16495;139;326;83.98
16495;105;323;83.93
16495;176;324;83.87
16495;144;325;83.82
16502;111;323;83.75
16503;176;320;83.66
16576;143;326;83.59
16576;108;323;83.52
16576;176;327;83.43
16576;122;325;83.34
16576;102;322;83.26
16576;143;325;83.17
16576;144;325;83.07
16652;107;320;82.95
16655;169;324;82.84
16655;144;329;82.77
16655;109;321;82.73
16655;173;325;82.71
16655;141;330;82.68
16659;109;322;82.64
16736;170;326;82.59
16736;142;323;82.52
16736;106;323;82.45
16736;170;329;82.37
16736;145;327;82.31
16736;109;320;82.27
16736;167;325;82.23
16813;146;329;82.18
16813;109;319;82.12
16815;162;325;82.07
16815;137;326;82.04
16815;116;321;82.01
16818;164;325;82.0
16818;151;325;81.98
16898;103;322;81.96
16898;160;322;81.92
16898;146;327;81.88
16898;108;320;81.83
16898;160;324;81.78
16898;147;330;81.74
16902;108;322;81.72
16903;159;321;81.72
16978;154;326;81.73
16978;109;321;81.73
16980;161;323;81.72
16980;150;323;81.67
16980;109;321;81.62
16982;155;321;81.57
16982;153;326;81.53
17060;110;322;81.49
17060;155;322;81.44
17062;157;329;81.36
17062;107;321;81.28
17062;157;323;81.19
17064;162;326;81.11
17064;109;325;81.03
17137;159;321;80.96
17137;159;324;80.89
17137;107;321;80.83
17137;150;320;80.76
17137;158;327;80.68
17137;107;321;80.58
17141;145;321;80.48
17228;160;323;80.38
17228;112;321;80.28
17228;149;322;80.17
17228;165;336;80.07
17228;112;320;79.96
17228;157;324;79.86
17228;165;327;79.79
17234;111;321;79.72
17310;150;323;79.64
17310;165;326;79.53
17310;86;320;79.4
17310;145;322;79.27
17310;162;333;79.15
17310;111;320;79.03
17310;143;323;78.92
17310;167;326;78.82
17388;112;322;78.7
17388;144;322;78.59
17388;144;328;78.49
17388;115;323;78.39
17388;142;321;78.28
17388;173;330;78.19
17392;112;322;78.09
17470;143;322;78.0
17472;175;326;77.89
17472;112;323;77.79
17472;144;320;77.68
17472;176;327;77.58
17472;117;325;77.47
17475;141;324;77.36
17551;173;328;77.23
17553;115;322;77.09
17553;140;322;76.93
17553;176;326;76.77
17555;119;325;76.6
17555;134;322;76.39
17555;177;328;76.21
17628;118;323;75.99
17628;135;320;75.74
17628;157;330;75.47
17628;112;325;75.17
17628;133;320;74.88
17628;177;329;74.57
17628;114;323;74.27
17712;119;321;73.98
17714;171;326;73.63
17714;110;321;73.29
17716;125;322;72.96
17716;176;327;72.63
17716;118;322;72.27
17718;128;321;71.91
17719;179;327;71.54
17796;118;325;71.12
17796;123;319;70.7
17798;176;326;70.25
17798;115;322;69.81
17798;121;318;69.35
17798;176;325;68.9
17798;112;319;68.44
17872;117;318;67.95
17872;177;325;67.44
17872;112;320;66.92
17874;112;322;66.35
17874;173;326;65.75
17874;118;320;65.17
17876;139;320;64.57
17942;176;323;63.98
17942;112;319;63.3
17942;112;318;62.64
17942;176;325;61.91
17942;114;323;61.15
17942;110;320;60.4
18028;165;327;59.68
18028;108;323;59.01
18028;107;323;58.2
18028;176;327;57.74
18028;111;321;57.07
18028;102;318;56.31
18028;163;325;55.53
18028;110;320;54.8
18104;102;320;54.06
18104;161;326;53.31
18106;117;323;52.59
18106;102;320;51.84
18106;164;322;51.01
18108;115;324;50.13
18109;101;318;49.29
18174;164;327;48.49
18174;115;324;47.66
18174;110;321;46.84
18174;166;325;46.06
18174;117;327;45.28
18174;97;322;44.57
18250;158;326;43.79
18250;114;327;42.99
18252;103;320;42.22
18252;171;325;41.54
18254;115;329;40.84
18254;94;325;40.08
18256;166;331;39.29
18329;116;327;38.63
18329;98;323;38.01
18331;176;335;37.48
18331;115;335;36.9
18331;106;333;36.34
18333;176;336;35.74
18333;118;336;35.1
18401;80;333;34.53
18403;169;339;33.89
18403;108;340;33.29
18405;82;336;32.73
18405;160;341;32.18
18405;112;340;31.57
18408;83;334;31.0
18476;170;339;30.42
18476;123;339;29.91
18478;105;336;29.61
18478;173;341;28.96
18478;115;339;28.29
18480;88;337;27.76
18550;165;342;27.33
18550;106;342;27.0
18552;80;336;26.64
18552;156;339;26.19
18554;96;339;25.46
18554;74;335;24.96
18554;157;339;24.67
18626;99;339;24.23
18626;48;338;23.75
18626;130;343;23.31
18628;95;342;22.7
18628;62;341;22.12
18628;128;343;21.62
18630;85;345;21.12
18702;59;336;20.62
18704;126;342;20.11
18704;100;343;19.41
18706;64;337;18.68
18707;147;346;17.96
18707;103;342;17.17
18707;71;338;16.66
18776;129;342;16.19
18776;93;343;15.71
18776;61;340;15.13
18776;115;346;14.51
18776;91;350;14.09
18776;58;345;13.73
18860;113;349;13.27
18860;84;352;12.81
18860;51;341;12.26
18860;106;349;11.69
18860;86;349;11.13
18860;49;345;10.56
18860;105;347;10.07
18860;86;347;9.58
18945;48;345;9.09
18945;101;347;8.54
18945;92;349;8.0
18947;60;341;7.49
18947;102;345;6.97
18947;59;350;6.45
18949;47;344;5.96
19028;101;345;5.44
19028;81;349;4.92
19028;43;340;4.4
19030;92;346;3.88
19030;80;350;3.35
19030;45;342;2.84
19032;92;345;2.35
19032;86;348;1.89
19101;34;341;1.5
19101;83;342;1.1
19101;83;347;0.76
19101;44;341;0.47
19101;94;343;0.17
19101;82;347;0.12
19178;41;341;0.41
19178;83;343;0.72
19180;85;348;1.01
19180;43;338;1.33
19180;87;347;1.66
19182;87;349;1.98
19182;38;343;2.34
19254;95;343;2.65
19254;89;346;2.92
19254;42;343;3.14
19258;103;346;3.4
19258;96;347;3.61
19258;45;341;3.79
19258;100;346;3.99
19352;98;350;4.2
19354;47;342;4.4
19354;103;345;4.59
19356;97;347;4.79
19357;46;339;4.96
19357;99;346;5.13
19357;93;348;5.3
19357;46;340;5.46
19357;99;342;5.59
19450;102;353;5.71
19450;48;339;5.83
19450;102;345;5.93
19450;105;351;6.01
19450;49;339;6.09
19450;101;341;6.17
19450;103;349;6.25
19450;48;343;6.33
19457;105;348;6.4
19521;98;349;6.49
19521;47;342;6.58
19521;105;343;6.65
19521;105;349;6.73
19521;49;343;6.8
19521;101;343;6.86
19587;105;350;6.91
19587;48;343;6.97
19590;107;336;7.02
19592;109;351;7.06
19593;53;341;7.09
19593;105;343;7.12
19670;106;348;7.16
19670;48;342;7.19
19670;89;343;7.22
19670;109;346;7.25
19670;48;343;7.3
19670;100;346;7.34
19670;108;349;7.38
19744;48;343;7.41
19744;98;342;7.44
19744;106;351;7.48
19744;48;342;7.51
19744;102;345;7.54
19744;112;350;7.58
19744;53;343;7.61
19820;101;343;7.65
19820;113;350;7.68
19822;48;342;7.72
19822;98;343;7.75
19822;112;351;7.77
19824;50;343;7.79
19824;97;343;7.81
19891;112;351;7.82
19891;51;341;7.84
19891;99;343;7.86
19891;112;353;7.87
19891;50;341;7.88
19891;94;344;7.89
19969;114;351;7.9
19971;51;342;7.91
19971;90;348;7.92
19971;112;350;7.92
19974;48;341;7.93
19974;91;342;7.94
19974;117;351;7.94
20052;51;344;7.96
20052;94;343;7.98
20054;127;351;8.0
20054;51;343;8.02
20054;87;341;8.05
20054;117;351;8.07
20056;51;346;8.1
20056;90;343;8.13
20125;123;349;8.17
20125;49;343;8.2
20127;94;343;8.22
20127;120;350;8.23
20127;51;342;8.24
20129;85;341;8.24
20198;112;351;8.24
20200;50;343;8.23
20200;94;346;8.24
20203;121;350;8.24
20203;53;345;8.24
20203;86;343;8.24
20204;121;349;8.24
20277;53;345;8.24
20277;81;343;8.23
20277;122;353;8.23
20279;54;341;8.24
20279;91;341;8.25
20279;122;350;8.26
20281;54;342;8.27
20350;80;344;8.29
20350;123;352;8.31
20350;50;345;8.33
20350;82;341;8.35
20350;123;350;8.38
20350;54;342;8.4
20424;81;342;8.42
20424;121;351;8.43
20424;46;341;8.44
20424;81;342;8.44
20424;119;349;8.44
20424;60;341;8.44
20424;81;339;8.43
20506;122;351;8.44
20506;52;342;8.44
20506;80;343;8.44
20506;123;350;8.43
20506;52;341;8.42
20506;78;342;8.4
20506;128;352;8.39
20506;54;346;8.38
20576;81;342;8.38
20576;125;350;8.37
20576;55;342;8.38
20576;79;342;8.38
20576;131;349;8.39
20576;55;343;8.38
20642;78;342;8.39
20642;127;350;8.39
20642;54;346;8.39
20642;77;342;8.4
20642;128;350;8.4
20642;57;342;8.4
20718;71;341;8.4
20718;126;349;8.4
20718;53;340;8.4
20722;74;343;8.4
20722;131;349;8.41
20722;52;349;8.42
20777;75;341;8.43
20777;135;352;8.44
20777;57;349;8.44
20777;69;345;8.44
20777;130;351;8.44
20777;59;347;8.43
20860;69;339;8.43
20860;129;350;8.44
20860;58;345;8.44
20860;70;342;8.44
20860;129;350;8.45
20860;57;345;8.45
20860;72;341;8.46
20942;128;368;8.45
20942;58;343;8.45
20942;67;338;8.45
20942;130;351;8.45
20942;58;342;8.44
20942;67;339;8.44
20942;133;350;8.45
20942;59;346;8.46
21028;65;339;8.46
21028;133;351;8.47
21028;59;342;8.47
21030;65;339;8.47
21030;133;336;8.47
21030;61;344;8.47
21032;48;341;8.48
21111;139;349;8.49
21111;63;344;8.48
21111;70;342;8.47
21111;139;351;8.47
21111;62;345;8.46
21111;63;340;8.46
21117;141;350;8.46
21118;64;346;8.46
21185;64;341;8.47
21185;136;350;8.47
21185;63;345;8.48
21185;61;338;8.48
21185;131;347;8.47
21185;64;347;8.47
21262;63;347;8.47
21263;133;347;8.48
21263;64;342;8.49
21264;63;338;8.5
21264;125;353;8.5
21265;64;345;8.48
21265;64;343;8.46
21342;119;349;8.44
21342;70;346;8.42
21342;55;345;8.4
21344;112;347;8.38
21344;64;347;8.36
21344;51;339;8.34
21346;112;346;8.34
21417;70;345;8.33
21418;56;339;8.33
21418;109;349;8.3
21418;68;346;8.31
21418;48;340;8.32
21422;105;345;8.34
21422;73;348;8.35
21496;47;338;8.38
21496;107;345;8.41
21499;67;343;8.44
21499;58;341;8.47
21501;116;351;8.49
21501;70;345;8.51
21503;55;340;8.54
21503;117;346;8.55
21568;71;346;8.56
21568;53;341;8.57
21568;107;347;8.59
21568;64;343;8.61
21568;48;341;8.61
21568;109;350;8.61
21643;64;347;8.61
21643;53;338;8.62
21643;112;347;8.62
21643;71;350;8.62
21643;51;339;8.62
21643;142;349;8.62
21643;77;348;8.52
21712;54;339;8.61
21712;143;350;8.6
21712;74;352;8.57
21712;55;340;8.57
21712;145;349;8.62
21775;77;347;8.63
21777;55;342;8.62
21777;146;352;8.64
21777;85;346;8.66
21777;112;343;8.68
21779;251;359;8.7
21835;218;354;8.72
21835;199;355;8.73
21837;233;353;8.73
21837;91;351;8.73
21839;53;341;8.74
21839;140;350;8.74
21912;78;349;8.75
21912;48;346;8.75
21912;129;347;8.76
21914;83;348;8.77
21914;102;346;8.79
21916;176;351;8.81
21916;75;345;8.81
21993;42;340;8.81
21993;98;347;8.82
21993;65;345;8.83
21993;37;337;8.83
21993;93;344;8.83
21993;64;339;8.83
21993;42;341;8.83
22070;97;346;8.84
22071;67;346;8.84
22071;43;336;8.85
22071;99;347;8.85
22071;68;346;8.85
22071;44;342;8.86
22071;106;349;8.87
22143;75;346;8.89
22143;49;340;8.91
22143;90;346;8.93
22145;73;347;8.93
22145;48;343;8.94
22145;104;343;8.95
22214;71;347;8.95
22214;47;339;8.95
22214;107;347;8.94
22214;71;345;8.94
22214;48;343;8.93
22214;99;345;8.93
22214;71;347;8.93
22294;48;341;8.95
22294;106;347;8.95
22294;74;346;8.96
22294;50;342;8.97
22294;100;347;8.97
22294;68;341;8.98
22294;57;342;8.99
22368;101;346;9.02
22370;77;343;9.04
22370;49;342;9.06
22370;82;347;9.08
22370;71;349;9.1
22370;52;341;9.1
22370;85;346;9.12
22441;72;343;9.14
22441;51;346;9.14
22441;94;345;9.14
22443;77;349;9.14
22443;37;343;9.13
22443;98;348;9.13
22509;79;346;9.13
22509;55;343;9.13
22509;92;346;9.13
22509;78;343;9.13
22509;50;346;9.14
22511;87;346;9.14
22573;79;345;9.15
22573;51;344;9.15
22575;97;343;9.15
22575;77;347;9.16
22577;49;347;9.17
22577;97;346;9.17
22651;74;343;9.17
22651;50;342;9.18
22653;99;347;9.18
22653;75;347;9.18
22653;48;343;9.19
22653;95;347;9.19
22656;73;347;9.2
22725;48;345;9.2
22725;101;346;9.21
22725;77;349;9.21
22725;48;339;9.22
22725;108;344;9.23
22725;74;347;9.25
22725;48;341;9.25
22807;99;349;9.26
22807;79;346;9.27
22807;49;341;9.27
22807;102;346;9.27
22807;79;347;9.27
22807;48;343;9.27
22807;96;345;9.27
22874;80;346;9.28
22874;48;341;9.28
22874;101;345;9.28
22874;80;346;9.29
22874;47;341;9.29
22874;91;340;9.3
22950;73;349;9.32
22950;48;339;9.34
22950;101;343;9.35
22950;80;342;9.37
22950;47;339;9.38
22950;94;346;9.39
22950;82;349;9.41
23025;48;341;9.43
23025;90;345;9.46
23025;82;348;9.5
23025;41;339;9.53
23025;103;346;9.57
23031;95;349;9.62
23031;55;341;9.65
23109;131;347;9.7
23109;82;349;9.75
23109;22;338;9.8
23109;78;344;9.87
23109;87;350;9.94
23109;33;342;10.0
23109;90;341;10.07
23194;88;349;10.13
23194;41;340;10.19
23194;112;346;10.26
23194;107;353;10.34
23194;48;342;10.44
23199;119;346;10.54
23199;107;348;10.67
23200;48;340;10.79
23267;112;343;10.93
23267;101;347;11.08
23267;45;342;11.24
23267;99;343;11.4
23267;99;350;11.56
23267;44;339;11.56
23343;92;340;11.77
23343;96;346;11.85
23345;28;336;11.86
23345;83;337;11.74
23345;111;339;11.62
23347;44;314;11.48
23347;95;339;11.33
23417;110;347;11.09
23417;50;336;10.63
23417;161;343;10.06
23417;128;345;9.7
23417;46;336;9.65
23417;112;336;9.53
23417;144;347;9.12
23492;57;338;8.67
23492;103;336;7.56
23492;141;343;6.47
23492;57;336;6.73
23492;122;311;6.61
23492;141;310;6.31
23492;48;297;6.03
23575;170;320;5.95
23575;188;336;6.03
23575;68;328;6.04
23575;125;323;6.05
23575;142;329;6.15
23575;58;318;5.96
23575;86;320;5.85
23649;117;326;5.76
23649;48;320;5.56
23649;45;316;5.38
23649;102;321;5.27
23649;49;320;5.35
23649;58;313;5.16
23649;112;321;4.91
23724;64;319;4.39
23724;75;315;3.87
23724;116;323;3.15
23724;65;318;2.37
23724;80;317;2.16
23724;124;324;1.8
23799;74;316;1.34
23799;80;313;0.81
23799;128;325;0.05
23799;88;319;0.56
23799;112;320;1.34
23799;144;323;1.91
23799;93;321;2.81
23872;126;317;3.26
23872;162;326;3.88
23872;109;322;4.61
23872;143;320;5.42
23872;180;323;6.3
23872;126;326;7.14
23872;149;321;7.97
23953;176;326;8.88
23953;121;321;9.8
23953;152;321;10.83
23953;179;322;11.8
23953;116;319;12.77
23953;129;316;13.63
23953;176;321;14.5
24023;120;315;15.35
24023;173;317;16.19
24023;211;323;17.14
24023;158;319;18.0
24023;169;320;19.0
24023;205;323;19.9
24099;114;317;20.86
24099;110;314;21.79
24099;131;320;22.69
24099;103;317;23.61
24099;101;310;24.56
24099;144;320;25.47
24099;113;314;26.44
24178;133;316;27.4
24178;193;322;28.44
24180;128;318;29.34
24180;128;315;30.26
24180;182;319;31.29
24182;127;314;32.29
24182;140;317;33.25
24256;191;321;34.24
24256;129;316;35.26
24256;138;312;36.28
24256;192;321;37.33
24256;113;317;38.39
24256;114;311;39.46
24256;176;318;40.57
24341;117;313;41.63
24341;112;313;42.72
24341;164;320;43.75
24343;118;320;44.79
24343;111;304;45.92
24343;147;318;46.96
24345;115;319;48.02
24345;112;313;49.0
24425;169;320;50.0
24425;118;320;51.0
24425;117;317;52.02
24425;176;321;53.09
24425;128;320;54.11
24425;113;316;55.16
24425;163;321;56.19
24508;124;320;57.22
24511;116;319;58.31
24513;173;325;59.23
24514;128;322;60.21
24515;117;320;61.16
24517;169;321;62.07
24519;128;322;62.97
24519;119;319;63.83
24605;170;318;64.65
24605;133;322;65.45
24605;71;320;66.24
24605;173;325;67.01
24605;136;321;67.77
24605;119;320;68.49
24605;167;321;69.19
24605;131;322;69.86
24613;123;320;70.5
24690;171;320;71.11
24694;134;320;71.69
24696;123;320;72.25
24696;175;322;72.77
24699;138;322;73.27
24699;114;320;73.75
24701;174;323;74.21
24702;132;323;74.64
24803;117;320;75.04
24803;176;320;75.42
24803;134;321;75.79
24803;112;320;76.15
24803;167;322;76.5
24809;117;322;76.83
24811;112;317;77.15
24811;174;321;77.45
24811;139;322;77.75
24811;112;319;78.05
24916;176;326;78.34
24920;140;321;78.63
24920;111;319;78.93
24920;180;322;79.23
24923;138;322;79.52
24923;107;317;79.81
24923;188;323;80.08
24923;114;322;80.37
24923;96;319;80.65
24923;192;321;80.92
25001;144;322;81.19
25001;99;317;81.46
25001;208;323;81.73
25001;149;320;81.99
25001;97;315;82.27
25001;211;321;82.55
25001;152;323;82.82
25075;103;318;83.07
25075;220;321;83.32
25075;155;322;83.55
25075;95;314;83.77
25075;222;321;83.99
25080;155;322;84.22
25082;93;314;84.45
25146;223;323;84.68
25146;162;325;70.65
25146;90;316;64.38
25146;234;321;65.4
25146;166;322;66.38
25146;89;317;67.31
25226;235;327;68.19
25226;165;325;69.04
25226;94;317;69.85
25228;237;325;70.62
25228;174;324;71.34
25228;93;317;72.03
25231;239;326;72.68
25301;176;326;73.31
25301;88;317;73.93
25301;255;327;74.53
25301;192;327;75.1
25301;80;314;75.67
25301;331;326;76.17
25301;208;331;76.66
25372;77;317;77.09
25372;358;330;77.51
25372;218;334;77.9
25372;65;317;78.27
25372;339;327;78.62
25372;227;333;78.96
25449;73;319;79.28
25449;336;328;79.58
25449;227;335;79.87
25449;80;318;80.14
25449;311;327;80.39
25449;230;331;80.61
25449;80;319;80.79
25526;317;325;80.97
25526;231;331;81.13
25528;73;314;81.29
25528;325;329;81.43
25528;247;335;81.56
25528;74;317;81.66
25528;339;330;81.74
25600;262;337;81.78
25600;75;319;81.8
25600;339;329;81.81
25600;272;337;81.81
25600;75;320;81.78
25600;335;330;81.74
25600;276;341;81.67
25683;80;320;81.58
25683;331;331;81.45
25683;275;330;81.31
25683;80;320;81.19
25683;338;331;81.04
25683;288;339;80.86
25683;62;321;80.66
25760;319;331;80.43
25762;279;339;80.18
25762;80;320;79.91
25764;297;326;79.64
25766;278;336;79.35
25766;81;320;79.01
25766;258;322;78.63
25840;249;336;78.17
25840;78;320;77.71
25840;266;322;77.22
25840;290;336;76.77
25840;74;320;76.31
25840;263;320;75.82
25840;302;336;75.28
25924;69;304;74.74
25924;272;320;74.17
25924;300;336;73.45
25924;66;320;72.85
25924;303;323;72.17
25924;303;336;71.51
25924;58;319;70.81
25924;368;325;70.04
26001;346;336;69.31
26001;73;308;68.55
26003;228;318;67.73
26003;276;333;66.95
26003;71;316;66.14
26005;187;320;65.26
26071;285;336;64.28
26071;80;320;63.28
26071;176;315;62.36
26071;240;334;61.45
26071;81;318;60.4
26071;186;321;59.32
26071;256;336;58.26
26149;85;320;57.07
26151;161;321;55.99
26151;224;336;55.02
26151;110;326;54.07
26151;272;330;52.86
26154;309;336;51.7
26154;112;323;50.49
26227;139;323;49.11
26227;208;341;47.76
26227;92;327;46.68
26227;162;335;45.8
26227;198;347;44.89
26227;94;334;43.96
26227;157;331;42.94
26300;211;343;41.84
26300;79;333;40.76
26300;113;329;39.5
26300;193;336;38.35
26300;86;336;37.39
26300;132;336;36.57
26375;213;347;35.73
26377;80;340;34.9
26377;93;336;34.02
26377;218;351;33.13
26379;80;338;32.01
26380;113;337;31.24
26382;183;355;30.53
26459;81;337;29.54
26459;97;333;28.5
26459;175;349;27.51
26461;68;338;26.22
26461;65;336;25.09
26463;169;345;24.13
26463;74;340;23.25
26463;80;336;22.04
26534;172;350;20.93
26534;71;343;19.9
26534;43;337;18.91
26534;156;352;17.99
26534;66;346;17.05
26534;65;336;16.05
26609;131;349;15.05
26609;64;343;14.06
26611;42;338;13.04
26611;143;348;11.95
26611;64;343;10.82
26614;42;336;9.72
26614;144;347;8.67
26682;64;343;7.79
26682;48;336;7.14
26682;145;347;6.69
26682;67;343;6.33
26682;48;338;6.08
26682;144;349;5.84
26682;69;343;5.55
26757;47;336;5.14
26757;145;347;4.67
26757;69;346;4.18
26759;44;338;3.65
26759;143;347;3.12
26759;54;344;2.59
26828;42;336;2.07
26828;144;350;1.58
26828;69;342;1.15
26828;46;338;0.75
26828;157;346;0.4
26828;73;347;0.12
26828;50;338;0.16
26905;165;346;0.4
26905;71;347;0.62
26905;45;340;0.83
26905;164;351;1.06
26905;80;346;1.3
26905;53;336;1.58
26905;176;349;1.89
26982;80;345;2.18
26984;47;336;2.41
26984;176;351;2.61
26986;83;346;2.77
26986;50;338;2.9
26986;225;351;2.99
26988;88;347;3.19
27054;48;338;3.36
27054;176;350;3.52
27054;81;348;3.67
27054;45;336;3.8
27054;183;346;3.93
27054;85;347;4.07
27137;38;336;4.23
27137;176;347;4.4
27137;80;349;4.6
27137;43;337;4.8
27137;186;350;5.0
27137;93;343;5.22
27137;52;336;5.42
27137;192;350;5.62
27223;93;347;5.82
27223;63;338;6.03
27223;195;347;6.24
27223;101;349;6.43
27223;50;337;6.64
27223;164;347;6.87
27230;77;347;7.13
27309;32;336;7.44
27309;150;350;7.72
27309;87;346;7.91
27309;40;336;8.02
27309;121;341;7.91
27309;87;340;7.87
27309;48;335;7.8
27309;171;343;7.7
27383;93;341;7.48
27383;51;336;7.23
27383;174;343;7.09
27383;96;341;6.95
27383;50;339;6.87
27383;174;346;6.83
27455;97;338;6.78
27455;49;335;6.67
27455;152;341;6.47
27455;105;341;6.18
27455;64;335;5.81
27455;159;342;5.36
27455;116;343;4.8
27532;105;340;4.19
27534;152;342;3.53
27534;64;338;2.84
27534;20;336;2.12
27534;110;345;1.75
27534;87;345;1.48
27537;47;339;1.42
27608;133;348;1.68
27608;106;349;2.08
27608;56;341;2.6
27608;180;349;3.39
27610;112;347;4.34
27610;42;339;5.28
27612;112;346;6.02
27681;82;345;6.56
27681;42;339;6.86
27683;146;348;6.86
27683;109;349;6.6
27683;63;335;6.28
27685;182;349;6.03
27756;112;350;5.87
27758;34;339;5.84
27758;133;343;5.94
27760;94;347;6.08
27760;29;336;6.19
27762;113;344;6.27
27763;91;346;6.39
27844;36;338;6.54
27844;112;342;6.76
27847;96;350;7.04
27847;33;336;7.44
27847;118;341;7.85
27847;93;349;8.28
27847;36;341;8.73
27847;112;341;9.15
27922;90;349;9.76
27922;44;339;10.25
27922;118;341;10.67
27925;102;345;11.1
27925;48;337;11.44
27927;111;342;11.73
27927;97;343;11.93
27982;53;336;12.03
27982;150;347;12.09
27982;254;350;12.18
27982;449;358;12.21
27982;657;365;12.13
28058;429;350;12.0
28058;59;335;11.82
28060;37;336;11.71
28060;61;342;11.65
28060;27;339;11.65
28062;34;336;11.59
28062;74;339;11.29
28133;37;336;10.93
28133;52;333;10.45
28133;81;336;10.07
28135;39;326;9.74
28135;47;304;9.25
28135;81;305;8.51
28137;46;309;7.68
28203;69;320;6.79
28203;103;333;5.99
28203;62;331;5.61
28206;124;334;4.96
28207;109;338;4.12
28207;53;334;4.02
28283;104;336;4.49
28283;146;339;4.25
28283;94;336;3.93
28283;194;337;3.67
28283;161;343;3.38
28283;76;334;3.24
28283;175;339;3.25
28357;141;336;3.18
28357;61;330;2.92
28357;128;322;2.64
28357;128;333;2.38
28357;55;325;2.15
28357;112;335;2.07
28357;114;341;2.09
28423;64;336;2.16
28423;115;336;2.25
28423;125;340;2.28
28423;64;336;2.14
28423;119;336;1.97
28423;123;342;1.77
28499;62;337;1.58
28499;118;338;1.32
28499;126;342;1.08
28499;64;337;0.94
28499;128;337;0.86
28499;145;347;0.77
28499;49;336;0.86
28571;119;341;0.79
28571;163;349;0.84
28571;64;342;1.25
28571;133;342;1.78
28571;128;339;2.48
28571;49;345;3.24
28648;53;342;3.83
28650;105;348;4.21
28650;54;345;4.4
28650;112;343;4.48
28650;189;353;4.41
28650;97;348;4.28
28653;181;349;4.2
28719;190;353;4.27
28719;70;341;4.31
28722;89;339;4.38
28723;112;343;4.47
28723;49;339;4.52
28723;70;336;4.53
28723;111;342;4.48
28792;49;336;4.39
28792;70;336;4.38
28792;113;341;4.43
28792;58;338;4.58
28792;75;336;4.74
28792;112;342;4.86
28870;59;336;4.95
28870;66;339;4.97
28870;109;341;4.96
28870;64;338;4.94
28870;64;336;4.92
28870;114;342;4.93
28870;64;339;5.01
28958;71;336;5.14
28960;111;339;5.29
28960;64;339;5.46
28962;71;340;5.63
28962;111;341;5.79
28962;61;340;5.93
28964;64;336;6.04
28966;106;339;6.05
29047;64;337;5.97
29047;64;336;5.78
29047;115;341;5.3
29047;65;335;4.85
29047;80;337;4.34
29047;144;341;3.9
29047;80;336;3.5
29053;97;336;3.19
29122;139;339;3.02
29122;80;336;2.86
29122;92;333;2.86
29122;112;337;2.83
29122;67;337;2.78
29122;64;336;2.72
29122;113;339;2.65
29199;61;336;2.53
29201;74;336;2.41
29201;128;343;2.29
29201;65;336;2.13
29201;70;336;1.96
29201;150;346;1.8
29201;75;341;1.71
29273;105;337;1.68
29273;176;350;1.72
29273;71;340;1.75
29273;67;337;1.84
29273;138;348;2.0
29273;54;341;2.22
29339;36;337;2.41
29339;127;343;2.51
29339;55;343;2.6
29341;44;336;2.64
29341;128;347;2.69
29341;52;341;2.75
29406;34;336;2.92
29406;128;343;3.05
29406;54;341;3.28
29406;27;336;3.49
29406;137;343;3.75
29411;62;342;3.99
29479;36;339;4.16
29479;144;345;4.4
29479;57;342;4.64
29479;46;336;4.97
29479;154;346;5.32
29479;51;341;5.68
29479;39;335;6.06
29553;161;346;6.42
29553;55;340;6.78
29553;33;335;7.14
29553;176;348;7.48
29553;60;342;7.82
29553;30;336;8.1
29634;170;345;8.37
29634;63;346;8.69
29634;36;336;8.98
29634;182;350;9.35
29634;64;343;9.56
29634;38;336;9.7
29634;183;348;9.82
29634;61;342;9.99
29718;41;336;10.1
29718;191;345;10.28
29718;67;345;10.51
29718;50;336;10.72
29718;198;345;10.81
29718;64;345;10.92
29718;18;336;11.1
29793;175;347;11.23
29793;65;342;11.3
29793;22;336;11.38
29796;181;347;11.43
29796;64;346;11.59
29798;19;336;11.78
29799;183;349;11.94
29865;72;346;12.12
29865;23;336;12.27
29865;191;346;12.45
29865;76;341;12.6
29865;26;330;12.75
29865;192;343;12.82
29932;77;343;12.89
29932;22;335;12.92
29932;186;346;13.01
29932;80;345;13.09
29932;22;336;13.17
29932;188;347;13.27
29999;81;343;13.36
29999;26;336;13.45
29999;183;345;13.55
29999;86;345;13.68
29999;23;333;13.84
29999;176;326;14.0
30056;85;346;14.13
30056;26;335;14.22
30056;169;347;14.29
30056;85;343;14.35
30056;25;336;14.42
30124;158;345;14.49
30124;81;348;14.56
30124;23;336;14.62
30126;154;343;14.68
30126;90;342;14.75
30126;24;336;14.84
30207;151;343;14.92
30207;91;345;14.99
30209;24;336;15.03
30209;161;345;15.04
30209;97;347;15.07
30211;23;336;15.12
30211;157;342;15.19
30211;98;347;15.28
30281;23;336;15.39
30281;147;340;15.47
30283;107;351;15.53
30283;23;329;15.6
30283;144;342;15.67
30283;112;347;15.75
30283;27;331;15.81
30352;144;341;15.85
30352;109;349;15.89
30352;18;336;15.93
30352;138;338;15.98
30352;114;350;16.07
30352;20;336;16.17
30431;135;339;16.25
30432;123;351;16.28
30432;21;337;16.3
30434;138;344;16.32
30434;127;349;16.37
30436;25;337;16.44
30436;135;339;16.55
30506;128;350;16.64
30506;28;336;16.7
30506;132;339;16.73
30506;131;349;16.74
30506;29;337;16.79
30506;130;336;16.86
30506;133;347;16.97
30588;33;337;17.1
30588;119;336;17.22
30588;134;349;17.31
30588;33;337;17.3
30588;60;336;17.27
30588;158;351;17.3
30588;38;336;17.39
30654;113;336;17.51
30654;144;345;17.67
30654;39;336;17.84
30654;108;341;17.97
30654;140;349;17.96
30654;39;337;17.9
30736;86;336;17.92
30736;133;348;17.96
30736;43;338;17.99
30736;83;339;18.06
30736;134;346;18.15
30736;42;338;18.21
30736;69;337;18.17
30822;126;337;18.06
30822;35;338;17.92
30822;48;336;17.68
30822;113;345;17.48
30822;38;336;17.39
30822;33;336;17.29
30822;115;339;17.28
30822;34;336;17.25
30897;32;331;17.18
30897;91;338;16.93
30899;35;334;16.52
30899;33;331;16.17
30899;112;339;15.72
30901;54;338;15.38
30902;64;335;15.24
30971;192;343;15.01
30971;77;336;14.81
30971;118;336;14.36
30971;177;340;13.78
30971;80;336;13.17
30971;91;335;12.91
30971;153;343;12.82
31056;79;336;12.8
31056;112;336;12.74
31056;183;345;12.67
31056;82;337;12.57
31056;102;334;12.46
31056;158;339;12.38
31056;75;338;12.24
31108;80;333;12.12
31108;145;339;12.02
31110;76;336;11.9
31110;68;333;11.76
31110;140;342;11.61
31184;75;336;11.49
31184;71;334;11.41
31184;131;337;11.37
31184;80;355;11.35
31184;64;333;11.33
31184;137;336;11.24
31188;78;336;11.13
31257;66;332;11.0
31257;135;337;10.93
31259;79;336;10.85
31259;64;334;10.74
31261;128;336;10.66
31261;81;336;10.62
31329;65;334;10.53
31331;123;336;10.34
31331;81;335;10.14
31331;64;335;9.98
31333;125;335;9.85
31333;79;336;9.76
31333;64;335;9.7
31401;117;336;9.65
31401;80;339;9.59
31401;65;333;9.53
31401;117;338;9.46
31401;80;336;9.38
31401;64;334;9.28
31470;119;338;9.19
31470;80;338;9.09
31470;58;336;9.02
31470;111;337;8.94
31475;78;336;8.88
31475;55;336;8.84
31541;125;336;8.82
31544;77;336;8.78
31544;58;336;8.73
31546;114;339;8.71
31546;75;336;8.7
31549;60;335;8.67
31549;116;339;8.63
31615;79;337;8.59
31615;62;336;8.58
31615;112;341;8.58
31615;77;336;8.6
31615;64;337;8.58
31615;121;340;8.53
31690;78;340;8.51
31691;59;336;8.48
31691;112;342;8.45
31691;70;342;8.44
31691;53;336;8.33
31691;107;341;8.4
31691;73;346;8.42
31766;32;336;8.36
31768;108;336;8.28
31768;75;339;8.2
31768;48;337;8.15
31770;101;342;8.08
31770;75;341;8.0
31770;48;336;7.93
31840;103;339;7.86
31840;76;335;7.81
31840;50;339;7.79
31840;106;343;7.78
31840;74;341;7.78
31840;48;337;7.76
31906;109;342;7.73
31906;76;340;7.7
31906;49;336;7.67
31906;105;341;7.64
31906;75;349;7.62
31906;48;338;7.6
31981;101;342;7.6
31981;71;342;7.62
31981;47;339;7.67
31981;99;339;7.74
31981;78;343;7.83
31981;50;338;7.88
31981;102;340;7.84
32057;75;344;7.83
32057;50;339;7.79
32059;99;342;7.83
32059;74;342;7.88
32060;48;337;7.92
32060;92;342;7.96
32060;71;341;7.99
32121;49;339;8.01
32121;81;342;8.0
32121;77;341;8.0
32125;53;339;7.93
32125;82;341;7.9
32127;80;342;7.84
32202;53;339;7.82
32202;80;342;7.81
32202;81;342;7.68
32202;48;338;7.78
32202;79;338;7.89
32202;79;339;7.87
32202;53;337;7.89
32269;81;340;7.91
32269;82;345;7.91
32269;50;341;7.96
32269;80;342;7.98
32269;80;341;7.96
32269;52;342;7.94
32354;77;339;7.91
32354;80;342;7.87
32354;49;341;7.84
32354;77;339;7.83
32354;81;336;7.82
32354;53;339;7.81
32354;77;341;7.8
32354;87;342;7.8
32436;57;339;7.77
32436;82;341;7.75
32436;83;342;7.73
32436;56;342;7.73
32436;82;341;7.67
32436;87;353;7.73
32436;52;339;7.73
32504;74;346;7.7
32504;83;341;7.68
32504;53;339;7.67
32504;74;342;7.65
32504;87;344;7.64
32504;58;339;7.65
32587;79;340;7.64
32587;90;342;7.63
32587;59;340;7.61
32587;92;341;7.6
32587;112;346;7.58
32587;79;342;7.56
32587;137;342;7.55
32587;160;349;7.54
32656;149;347;7.54
32658;239;353;7.56
32658;268;352;7.58
32658;256;351;7.59
32658;315;354;7.57
32658;348;361;7.56
32738;320;355;7.55
32738;317;358;7.57
32738;338;359;7.58
32738;254;352;7.59
32747;230;346;7.69
32747;161;345;7.71
32747;62;339;7.75
32747;48;336;7.75
32847;59;339;7.72
32847;35;338;7.64
32847;41;336;7.6
32847;61;341;7.57
32853;42;338;7.54
32853;42;336;7.54
32853;61;339;7.58
32853;39;339;7.52
32853;43;336;7.41
32954;61;339;7.27
32956;45;340;7.16
32956;47;336;7.05
32958;67;341;6.94
32960;50;337;6.85
32960;48;336;6.76
32962;81;341;6.66
32962;55;337;6.57
32962;64;338;6.46
32962;97;340;6.35
33051;62;336;6.23
33051;84;336;6.07
33051;114;341;5.9
33051;70;335;5.73
33051;71;336;5.55
33051;101;337;5.42
33051;65;336;5.32
33051;64;336;5.27
33118;111;336;5.25
33118;66;336;5.23
33118;64;335;5.18
33118;101;337;5.12
33118;64;336;5.08
33118;29;330;5.11
33180;86;336;5.18
33180;61;336;5.23
33180;70;335;5.3
33180;122;337;5.28
33180;63;337;5.29
33180;58;334;5.15
33248;106;337;5.01
33248;59;335;4.85
33248;50;335;4.7
33248;88;336;4.6
33248;53;336;4.46
33248;48;336;4.23
33322;103;343;3.98
33322;58;339;3.71
33324;38;336;3.44
33324;89;340;3.14
33325;45;341;2.93
33326;34;339;2.92
33326;95;343;3.0
33407;59;342;3.17
33407;26;337;3.42
33407;86;343;3.68
33407;50;337;3.92
33407;30;336;4.14
33407;94;339;4.32
33407;49;339;4.41
33471;32;336;4.52
33471;112;346;4.59
33471;48;341;4.54
33471;32;334;4.61
33471;112;344;4.77
33471;48;342;4.83
33549;23;331;5.15
33549;101;340;5.48
33551;20;340;5.77
33551;7;336;5.94
33553;129;341;5.99
33554;51;339;5.95
33555;37;336;5.94
33637;140;341;5.94
33637;45;339;5.78
33639;23;336;6.0
33639;118;346;6.23
33639;48;336;6.44
33641;6;336;6.62
33641;109;345;6.73
33641;54;340;6.84
33717;27;338;6.92
33719;137;345;6.98
33719;62;342;7.03
33719;38;336;7.06
33721;150;345;7.15
33721;80;343;7.28
33723;64;336;7.48
33772;181;348;7.71
33772;79;341;7.91
33772;48;337;8.04
33778;155;344;8.08
33781;81;343;8.12
33888;59;337;8.11
33888;178;348;8.19
33890;93;346;8.28
33890;64;338;8.37
33892;169;346;8.44
33894;86;346;8.47
33896;52;336;8.45
33898;144;338;8.41
33898;81;343;8.37
33900;47;338;8.37
33901;157;343;8.38
34017;90;342;8.34
34017;48;336;8.26
34017;146;343;8.22
34017;81;343;8.22
34022;44;336;8.23
34024;142;342;8.27
34024;83;346;8.31
34024;43;339;8.28
34024;130;336;8.15
34024;87;347;7.98
34024;45;325;7.77
34031;154;347;7.57
34149;93;343;7.46
34149;47;336;7.41
34149;155;346;7.36
34154;94;341;7.27
34155;42;338;7.16
34155;161;345;7.07
34155;95;347;7.09
34155;39;336;7.22
34155;153;347;7.35
34155;91;346;7.53
34161;39;336;7.67
34162;160;343;7.76
34265;76;343;7.84
34267;37;337;7.9
34267;172;346;7.95
34267;92;345;8.03
34269;35;336;8.15
34269;178;346;8.27
34269;95;346;8.39
34269;37;336;8.47
34269;176;346;8.5
34269;99;336;8.47
34377;34;337;8.44
34377;185;349;8.46
34377;102;347;8.55
34377;36;336;8.67
34377;197;348;8.8
34384;102;346;8.89
34384;32;336;8.93
34384;179;348;8.97
34384;103;346;9.02
34384;35;336;9.14
34475;176;345;9.31
34477;107;345;9.48
34477;37;342;9.63
34477;173;348;9.69
34479;105;350;9.68
34479;35;336;9.6
34479;167;346;9.54
34481;110;347;9.59
34555;33;335;9.73
34555;151;341;9.93
34556;100;339;10.1
34556;23;330;10.24
34556;125;335;10.36
34556;109;336;10.48
34556;32;330;10.63
34622;141;333;10.77
34622;101;334;10.93
34622;29;325;11.11
34622;95;325;11.18
34622;90;320;11.09
34627;17;319;10.94
34697;74;318;10.82
34697;80;318;10.68
34697;18;320;10.62
34699;81;325;10.44
34699;112;337;10.25
34699;48;331;9.91
34701;101;332;9.37
34769;112;336;8.99
34769;57;331;8.63
34769;130;332;8.76
34769;134;337;8.98
34769;54;330;9.01
34769;170;335;8.89
34769;137;336;8.63
34847;52;326;8.29
34847;120;329;7.85
34847;122;339;7.55
34847;52;329;7.42
34847;112;336;7.47
34847;90;338;7.64
34920;55;320;7.82
34920;142;336;7.95
34920;143;336;8.06
34920;57;331;8.14
34920;126;336;8.2
34920;128;336;8.22
34920;55;325;8.22
34996;119;326;8.14
34998;139;331;8.0
34998;57;320;7.78
34998;125;325;7.57
34998;131;331;7.46
34998;59;322;7.43
34998;118;324;7.45
35072;128;334;7.47
35072;63;331;7.56
35072;105;333;7.68
35072;131;337;7.81
35072;64;335;7.93
35077;91;334;8.04
35077;128;337;8.14
35147;64;335;8.22
35147;73;336;8.29
35147;104;336;8.34
35147;62;336;8.35
35147;71;334;8.35
35147;111;336;8.38
35221;69;332;8.39
35221;93;336;8.39
35223;128;336;8.35
35223;69;333;8.29
35223;68;326;8.18
35223;103;333;8.13
35225;64;331;8.27
35305;73;335;8.61
35305;112;335;9.01
35305;67;335;9.34
35307;80;331;9.54
35307;128;338;9.64
35309;79;335;9.7
35309;113;336;9.76
35309;154;339;9.86
35380;85;336;9.97
35380;106;333;10.14
35380;133;334;10.39
35380;75;323;10.67
35382;99;320;10.96
35383;138;326;11.28
35451;80;322;11.59
35451;115;321;11.76
35451;147;327;11.81
35451;82;335;11.73
35451;80;334;11.49
35451;112;337;11.27
35451;65;334;11.25
35534;74;335;11.46
35534;151;337;11.56
35534;107;338;11.48
35534;131;336;11.44
35534;193;339;11.33
35534;98;335;11.2
35534;77;333;11.08
35622;144;339;11.09
35624;94;338;11.26
35624;87;335;11.53
35624;135;338;11.84
35624;83;337;12.15
35627;76;333;12.43
35629;103;332;12.59
35630;65;331;12.62
35705;46;329;12.6
35705;83;330;12.62
35705;64;323;12.63
35707;47;324;12.71
35708;84;334;12.92
35708;67;335;13.02
35708;45;332;13.29
35778;85;334;13.45
35780;66;336;13.47
35780;36;329;13.46
35780;58;330;13.53
35780;61;336;13.43
35780;33;335;13.23
35780;62;334;13.08
35853;48;331;12.98
35853;39;328;12.79
35853;54;331;12.8
35853;55;332;12.7
35853;44;324;12.44
35853;71;333;12.17
35853;65;329;11.94
35928;46;321;11.54
35930;58;324;10.99
35930;56;321;10.47
35930;47;320;9.66
35932;56;320;8.91
35932;57;320;8.48
35934;42;317;7.7
36003;57;317;6.67
36003;62;319;5.65
36005;58;317;4.49
36005;69;317;3.39
36005;74;320;2.26
36005;59;311;1.24
36079;80;317;0.3
36079;87;316;0.59
36079;67;320;1.83
36079;102;319;3.12
36079;173;326;4.83
36079;240;322;5.82
36079;331;333;5.56
36154;250;333;5.76
36154;324;334;6.27
36154;448;336;6.83
36154;457;339;7.5
36154;461;336;8.23
36154;511;338;8.92
36154;439;337;9.59
36234;379;336;10.23
36234;390;335;10.82
36234;297;333;11.35
36234;237;316;11.8
36234;274;331;12.2
36234;220;334;12.55
36234;194;329;12.9
36317;233;329;13.26
36317;176;326;13.61
36317;128;324;13.94
36317;144;323;14.28
36317;127;326;14.56
36317;103;322;14.82
36317;144;322;15.02
36405;143;328;15.19
36405;128;325;15.32
36407;210;333;15.4
36407;240;334;15.45
36409;272;331;15.39
36409;355;336;15.18
36411;365;339;15.03
36411;367;333;14.97
36489;464;340;14.85
36489;464;343;14.59
36489;434;340;14.32
36489;473;336;14.18
36489;418;338;14.08
36494;359;336;13.79
36495;385;339;13.58
36495;354;342;13.26
36571;327;336;12.88
36573;400;341;12.42
36573;365;339;11.94
36573;229;336;11.63
36575;192;336;11.48
36577;144;338;11.43
36579;87;336;11.26
36655;112;336;10.98
36655;159;342;10.34
36655;128;338;9.9
36655;163;340;9.66
36655;144;339;9.42
36655;91;336;9.14
36655;137;336;8.76
36655;138;336;8.28
36720;51;336;7.57
36720;107;336;6.95
36720;142;342;6.4
36720;82;336;5.89
36720;105;336;5.39
36786;112;338;5.0
36786;66;336;4.65
36786;126;337;4.33
36786;152;343;4.1
36786;89;338;3.94
36786;103;336;3.72
36852;124;342;3.45
36852;71;339;3.17
36852;110;336;2.88
36852;134;344;2.48
36852;64;340;1.82
36852;64;337;1.13
36852;80;339;0.54
36927;61;341;0.03
36929;64;339;0.58
36929;101;345;1.08
36929;58;346;1.49
36931;68;337;1.93
36931;104;342;2.19
36988;67;342;2.33
36988;63;342;2.52
36988;74;343;2.77
36988;49;342;3.14
36988;31;339;3.58
37052;69;343;4.09
37052;48;341;4.58
37052;50;344;5.08
37052;81;345;5.56
37052;57;340;6.01
37052;69;340;6.45
37127;108;342;6.83
37129;71;347;7.1
37129;101;342;7.24
37129;129;344;7.31
37129;106;346;7.28
37129;103;340;7.37
37129;109;346;7.35
37203;63;346;7.44
37203;58;340;7.57
37203;93;345;7.74
37203;76;340;7.92
37203;54;338;8.18
37203;80;342;8.39
37203;58;341;8.63
37270;53;339;8.84
37270;80;342;9.0
37272;49;341;9.13
37272;48;349;9.23
37272;80;346;9.32
37274;64;340;9.39
37351;80;341;9.47
37351;95;342;9.55
37351;55;343;9.66
37351;45;338;9.8
37351;74;339;9.94
37351;56;342;10.09
37351;46;339;10.21
37418;71;342;10.3
37420;54;341;10.35
37420;43;336;10.42
37420;69;342;10.48
37422;61;340;10.53
37422;31;337;10.59
37483;75;341;10.66
37483;58;341;10.73
37483;45;338;10.81
37483;77;340;10.87
37483;58;336;10.94
37483;48;338;11.01
37550;80;342;11.06
37550;57;342;11.11
37550;46;338;11.17
37550;71;339;11.22
37550;60;341;11.27
37550;46;339;11.21
37617;68;341;11.36
37617;55;337;11.43
37617;46;337;11.45
37617;78;338;11.49
37617;62;341;11.53
37617;42;339;11.58
37686;65;337;11.62
37686;57;341;11.66
37686;45;339;11.71
37688;67;337;11.75
37688;63;340;11.8
37688;47;338;11.85
37753;73;338;11.88
37753;65;340;11.93
37755;50;341;11.98
37755;68;341;12.02
37755;65;342;12.06
37757;48;341;12.1
37836;68;339;12.12
37836;65;335;12.12
37838;48;337;12.11
37838;77;339;12.1
37838;64;341;12.09
37840;48;341;12.1
37840;48;340;12.09
37840;68;341;12.07
37902;50;339;12.04
37902;69;342;12.0
37902;70;342;11.97
37902;49;339;11.93
37902;69;334;11.91
37902;67;340;11.9
37978;49;338;11.92
37978;68;338;11.95
37978;64;342;11.98
37978;48;338;12.01
37978;70;339;12.02
37978;66;341;12.05
38052;49;338;12.07
38052;64;339;12.09
38052;66;341;12.11
38052;47;336;12.15
38052;62;339;12.19
38052;71;339;12.24
38052;48;338;12.29
38119;66;337;12.34
38119;74;341;12.4
38119;54;340;12.46
38119;96;345;12.53
38119;90;340;12.58
38119;47;339;12.64
38187;69;343;12.72
38187;78;342;12.78
38189;48;339;12.87
38189;69;341;13.0
38189;75;343;13.1
38191;48;338;13.22
38258;64;339;13.34
38258;71;342;13.5
38258;48;336;13.64
38258;58;339;13.78
38258;67;341;13.93
38258;53;338;14.1
38264;104;341;14.26
38345;71;340;14.29
38346;43;336;14.46
38346;38;338;14.6
38348;79;342;14.7
38349;50;339;14.79
38349;65;340;14.92
38351;71;339;15.07
38353;48;342;15.2
38421;59;339;15.25
38422;79;343;15.25
38422;53;342;15.22
38422;64;338;15.14
38424;80;341;15.01
38425;57;338;14.9
38489;81;336;14.72
38489;87;336;14.56
38493;64;340;14.69
38493;48;336;14.79
38493;170;342;14.68
38495;75;341;14.59
38556;80;335;14.59
38556;133;346;14.6
38559;58;336;14.52
38559;80;337;14.43
38562;111;341;14.35
38562;49;338;14.31
38632;49;336;14.31
38632;84;338;14.29
38632;45;336;14.28
38634;43;336;14.32
38634;83;341;14.32
38634;23;337;14.34
38636;43;335;14.36
38700;89;339;14.36
38700;48;336;14.33
38700;57;336;14.3
38700;115;339;14.24
38700;53;336;14.19
38700;61;336;14.1
38769;115;339;14.13
38770;62;336;14.34
38770;64;336;14.69
38770;112;342;15.12
38772;55;338;15.61
38773;53;336;16.07
38835;93;339;16.5
38838;53;341;16.98
38838;48;340;17.39
38838;102;343;17.65
38842;70;345;17.95
38842;96;342;18.25
38844;144;347;18.65
38889;92;345;18.96
38892;70;340;19.14
38892;93;340;19.29
38894;58;342;19.61
38970;50;336;20.26
38970;112;343;20.86
38970;61;338;21.23
38972;64;337;21.42
38972;92;344;21.42
38973;71;347;21.21
38975;32;338;20.96
39049;105;339;20.75
39052;70;350;20.62
39052;49;341;20.44
39052;113;345;20.29
39052;80;342;20.07
39052;64;341;19.75
39056;129;343;19.27
39056;93;342;18.75
39114;123;346;18.12
39114;251;352;17.51
39114;256;351;17.05
39114;135;339;16.75
39114;64;345;16.5
39163;48;341;16.36
39163;23;337;16.32
39165;59;341;16.35
39165;51;338;16.29
39212;23;335;16.17
39212;64;339;16.03
39212;61;339;16.04
39214;38;336;16.18
39214;95;339;16.37
39261;76;341;16.43
39261;42;335;16.37
39261;110;339;16.3
39261;87;331;16.2
39312;44;335;16.02
39312;98;338;15.95
39312;71;339;16.0
39312;29;334;16.14
39312;66;336;16.4
39377;63;336;16.68
39377;31;331;16.99
39377;67;336;17.38
39377;59;336;17.73
39377;16;327;18.0
39377;64;335;18.24
39454;79;336;18.62
39454;25;329;18.83
39454;69;334;18.86
39454;80;336;18.97
39454;43;331;19.18
39454;128;336;19.49
39458;113;344;19.88
39535;135;336;20.3
39535;327;349;20.55
39535;208;343;20.73
39535;95;334;20.97
39535;178;343;21.17
39535;119;343;21.2
39535;52;337;21.41
39600;129;336;21.57
39600;104;338;21.81
39600;67;335;22.16
39600;123;339;22.62
39600;106;341;23.14
39600;53;336;23.68
39667;165;341;24.18
39667;161;345;24.49
39667;122;338;24.64
39667;210;347;24.75
39667;151;349;24.75
39667;65;341;24.68
39743;118;345;24.57
39745;105;347;24.44
39745;46;339;24.21
39745;102;340;23.9
39745;115;349;23.56
39745;61;338;23.21
39745;178;352;22.97
39816;172;355;22.78
39816;94;341;22.55
39816;189;342;22.22
39816;139;345;21.8
39816;76;336;21.41
39816;118;346;20.94
39882;129;351;20.33
39882;54;345;19.68
39882;82;340;19.02
39882;99;346;18.5
39882;34;336;18.07
39882;54;338;17.71
39948;106;343;17.45
39950;58;339;17.38
39950;48;336;17.38
39952;66;339;17.37
39952;33;337;17.37
39952;20;336;17.36
40031;84;341;17.34
40031;49;338;17.33
40031;70;336;17.34
40033;111;345;17.24
40033;36;336;17.1
40035;48;336;17.01
40035;97;341;16.96
40037;49;336;16.99
40103;58;336;17.19
40105;105;341;17.59
40105;65;342;18.08
40108;50;336;18.56
40108;128;341;18.98
40108;51;343;19.32
40179;54;336;19.65
40179;111;341;19.99
40181;53;337;20.33
40181;52;336;20.6
40181;96;341;20.79
40183;49;338;20.91
40183;52;335;20.97
40251;115;339;21.0
40251;87;337;21.0
40251;106;336;21.01
40253;146;346;21.03
40253;48;339;21.08
40253;70;339;21.17
40332;116;341;21.3
40332;77;342;21.48
40332;90;336;21.7
40332;167;347;21.99
40332;94;343;22.3
40332;144;344;22.62
40332;199;348;22.89
40332;121;344;23.1
40410;197;342;23.27
40410;277;351;23.36
40412;213;349;23.41
40412;306;349;23.37
40412;402;362;23.29
40412;302;353;23.18
40416;366;360;23.02
40628;336;355;22.87
40630;149;348;22.67
40632;138;341;22.33
40634;175;350;21.81
40636;77;345;21.24
40638;70;342;20.77
40640;163;350;20.39
40643;77;346;19.98
40643;64;339;19.45
40645;141;346;18.86
40649;85;343;18.23
40651;143;345;17.64
40653;215;353;17.28
40653;90;352;17.15
40655;38;339;17.25
40657;86;346;17.44
40660;69;343;17.81
40662;48;339;18.12
40664;101;345;18.29
40664;67;348;18.37
40667;41;337;18.44
40669;102;343;18.42
40786;77;341;18.26
40788;39;335;18.02
40788;128;337;17.68
40792;99;331;17.26
40794;34;340;16.8
40794;98;347;16.41
40794;81;339;16.16
40794;52;335;15.97
40801;143;341;15.65
40802;99;342;15.58
40805;54;336;15.74
40808;150;342;16.12
40811;86;338;16.74
